! Title:  Streak: (  1,  2 )  Ni2MnGa 5M with 10% stacking faults
! Legend_X  Reciprocal Lattice Units (r.l.u.)
! Legend_Y  Log(Intensity) (arb. units)
! Scattering variable: r.l.u.
! faults10_streak1.dat     h =    1  k =    2
   -5.0000    0.0100    5.0000
    24.28586    23.03113    22.55956    22.26104    22.04148    21.86787    21.72453    21.60272
    21.49706    21.40398    21.32102    21.24638    21.17871    21.11698    21.06038    21.00826
    20.96008    20.91540    20.87387    20.83517    20.79904    20.76525    20.73359    20.70390
    20.67603    20.64983    20.62519    20.60200    20.58016    20.55959    20.54020    20.52192
    20.50468    20.48843    20.47311    20.45867    20.44505    20.43222    20.42014    20.40877
    20.39807    20.38800    20.37855    20.36968    20.36137    20.35358    20.34631    20.33951
    20.33319    20.32731    20.32185    20.31681    20.31217    20.30790    20.30400    20.30046
    20.29725    20.29437    20.29181    20.28956    20.28760    20.28593    20.28454    20.28342
    20.28257    20.28196    20.28161    20.28150    20.28162    20.28197    20.28255    20.28334
    20.28434    20.28556    20.28698    20.28859    20.29041    20.29241    20.29461    20.29698
    20.29954    20.30228    20.30519    20.30828    20.31154    20.31496    20.31856    20.32231
    20.32623    20.33031    20.33455    20.33894    20.34349    20.34820    20.35306    20.35807
    20.36323    20.36854    20.37400    20.37961    20.38537    20.39127    20.39732    20.40352
    20.40986    20.41635    20.42298    20.42976    20.43668    20.44375    20.45096    20.45832
    20.46582    20.47347    20.48126    20.48919    20.49727    20.50550    20.51387    20.52238
    20.53105    20.53986    20.54881    20.55791    20.56716    20.57656    20.58610    20.59579
    20.60563    20.61561    20.62574    20.63602    20.64644    20.65702    20.66774    20.67860
    20.68961    20.70076    20.71206    20.72349    20.73507    20.74678    20.75863    20.77061
    20.78273    20.79497    20.80733    20.81981    20.83241    20.84511    20.85792    20.87082
    20.88380    20.89687    20.91001    20.92320    20.93644    20.94971    20.96301    20.97631
    20.98959    21.00285    21.01605    21.02918    21.04222    21.05513    21.06790    21.08049
    21.09287    21.10501    21.11688    21.12844    21.13965    21.15047    21.16087    21.17081
    21.18024    21.18913    21.19742    21.20510    21.21210    21.21842    21.22400    21.22881
    21.23284    21.23605    21.23843    21.23997    21.24066    21.24049    21.23947    21.23759
    21.23489    21.23137    21.22705    21.22196    21.21613    21.20959    21.20237    21.19452
    21.18607    21.17706    21.16754    21.15754    21.14709    21.13625    21.12505    21.11353
    21.10171    21.08964    21.07735    21.06487    21.05223    21.03945    21.02656    21.01358
    21.00054    20.98745    20.97433    20.96121    20.94808    20.93498    20.92191    20.90888
    20.89590    20.88298    20.87014    20.85737    20.84469    20.83210    20.81960    20.80721
    20.79492    20.78273    20.77066    20.75870    20.74685    20.73512    20.72351    20.71201
    20.70064    20.68939    20.67826    20.66725    20.65635    20.64559    20.63494    20.62441
    20.61400    20.60371    20.59353    20.58348    20.57354    20.56371    20.55400    20.54441
    20.53493    20.52555    20.51629    20.50713    20.49809    20.48915    20.48031    20.47158
    20.46295    20.45443    20.44600    20.43768    20.42945    20.42132    20.41328    20.40534
    20.39749    20.38974    20.38207    20.37450    20.36702    20.35962    20.35231    20.34509
    20.33795    20.33089    20.32392    20.31703    20.31022    20.30349    20.29684    20.29027
    20.28377    20.27736    20.27101    20.26474    20.25855    20.25243    20.24638    20.24041
    20.23450    20.22867    20.22290    20.21721    20.21158    20.20602    20.20053    20.19511
    20.18975    20.18446    20.17923    20.17407    20.16897    20.16393    20.15896    20.15406
    20.14921    20.14443    20.13971    20.13506    20.13046    20.12593    20.12145    20.11704
    20.11269    20.10840    20.10418    20.10001    20.09590    20.09186    20.08787    20.08395
    20.08009    20.07629    20.07256    20.06888    20.06527    20.06172    20.05824    20.05482
    20.05146    20.04817    20.04495    20.04180    20.03871    20.03569    20.03274    20.02987
    20.02706    20.02433    20.02168    20.01910    20.01661    20.01419    20.01186    20.00962
    20.00746    20.00539    20.00342    20.00155    19.99977    19.99810    19.99654    19.99509
    19.99376    19.99255    19.99147    19.99052    19.98971    19.98905    19.98854    19.98820
    19.98803    19.98803    19.98823    19.98863    19.98925    19.99009    19.99118    19.99252
    19.99414    19.99605    19.99828    20.00084    20.00377    20.00707    20.01079    20.01496
    20.01961    20.02477    20.03048    20.03679    20.04374    20.05139    20.05978    20.06897
    20.07902    20.09000    20.10197    20.11500    20.12916    20.14451    20.16112    20.17904
    20.19832    20.21899    20.24104    20.26446    20.28915    20.31497    20.34170    20.36902
    20.39648    20.42351    20.44940    20.47331    20.49431    20.51143    20.52380    20.53068
    20.53165    20.52662    20.51587    20.49997    20.47974    20.45611    20.43000    20.40230
    20.37374    20.34496    20.31645    20.28856    20.26158    20.23567    20.21095    20.18746
    20.16524    20.14426    20.12450    20.10592    20.08847    20.07207    20.05669    20.04225
    20.02870    20.01597    20.00402    19.99279    19.98222    19.97229    19.96293    19.95412
    19.94580    19.93796    19.93056    19.92356    19.91694    19.91068    19.90474    19.89912
    19.89378    19.88872    19.88391    19.87934    19.87500    19.87087    19.86694    19.86319
    19.85962    19.85622    19.85298    19.84988    19.84693    19.84411    19.84142    19.83886
    19.83641    19.83407    19.83183    19.82970    19.82766    19.82572    19.82386    19.82209
    19.82040    19.81879    19.81725    19.81579    19.81440    19.81307    19.81182    19.81062
    19.80949    19.80841    19.80740    19.80644    19.80553    19.80468    19.80388    19.80313
    19.80243    19.80178    19.80118    19.80062    19.80012    19.79965    19.79923    19.79885
    19.79852    19.79823    19.79798    19.79777    19.79760    19.79747    19.79738    19.79733
    19.79733    19.79736    19.79743    19.79754    19.79769    19.79787    19.79810    19.79837
    19.79867    19.79902    19.79941    19.79983    19.80030    19.80081    19.80136    19.80196
    19.80260    19.80328    19.80400    19.80478    19.80560    19.80647    19.80739    19.80836
    19.80939    19.81047    19.81161    19.81281    19.81407    19.81540    19.81680    19.81827
    19.81981    19.82145    19.82316    19.82497    19.82688    19.82889    19.83102    19.83326
    19.83564    19.83817    19.84084    19.84369    19.84671    19.84994    19.85339    19.85708
    19.86103    19.86528    19.86985    19.87478    19.88009    19.88584    19.89206    19.89880
    19.90611    19.91402    19.92257    19.93180    19.94172    19.95230    19.96350    19.97522
    19.98726    19.99937    20.01120    20.02229    20.03214    20.04022    20.04605    20.04927
    20.04972    20.04747    20.04281    20.03617    20.02810    20.01914    20.00977    20.00041
    19.99136    19.98284    19.97497    19.96784    19.96145    19.95581    19.95089    19.94663
    19.94299    19.93992    19.93736    19.93528    19.93363    19.93236    19.93143    19.93083
    19.93050    19.93044    19.93060    19.93098    19.93155    19.93230    19.93322    19.93428
    19.93548    19.93681    19.93826    19.93981    19.94147    19.94323    19.94508    19.94702
    19.94903    19.95113    19.95329    19.95553    19.95784    19.96021    19.96264    19.96513
    19.96768    19.97029    19.97295    19.97567    19.97844    19.98126    19.98413    19.98705
    19.99001    19.99303    19.99609    19.99920    20.00236    20.00556    20.00880    20.01209
    20.01543    20.01881    20.02223    20.02570    20.02922    20.03277    20.03637    20.04002
    20.04371    20.04744    20.05122    20.05504    20.05891    20.06282    20.06677    20.07077
    20.07482    20.07891    20.08305    20.08723    20.09146    20.09573    20.10006    20.10443
    20.10884    20.11331    20.11782    20.12238    20.12699    20.13165    20.13636    20.14112
    20.14593    20.15079    20.15570    20.16067    20.16568    20.17076    20.17588    20.18106
    20.18629    20.19158    20.19693    20.20233    20.20779    20.21330    20.21888    20.22451
    20.23021    20.23596    20.24178    20.24766    20.25360    20.25960    20.26567    20.27180
    20.27800    20.28427    20.29060    20.29700    20.30347    20.31001    20.31662    20.32331
    20.33006    20.33689    20.34379    20.35077    20.35783    20.36496    20.37217    20.37946
    20.38684    20.39429    20.40182    20.40944    20.41715    20.42494    20.43282    20.44078
    20.44884    20.45698    20.46522    20.47355    20.48198    20.49050    20.49912    20.50783
    20.51665    20.52556    20.53458    20.54370    20.55292    20.56225    20.57168    20.58122
    20.59088    20.60064    20.61051    20.62049    20.63059    20.64080    20.65112    20.66156
    20.67212    20.68279    20.69359    20.70450    20.71552    20.72667    20.73794    20.74932
    20.76082    20.77244    20.78418    20.79603    20.80800    20.82008    20.83227    20.84456
    20.85697    20.86947    20.88207    20.89477    20.90755    20.92042    20.93336    20.94637
    20.95943    20.97255    20.98571    20.99890    21.01210    21.02531    21.03850    21.05167
    21.06478    21.07783    21.09079    21.10363    21.11633    21.12887    21.14122    21.15334
    21.16521    21.17678    21.18803    21.19891    21.20939    21.21944    21.22900    21.23804
    21.24651    21.25439    21.26163    21.26819    21.27404    21.27914    21.28347    21.28701
    21.28972    21.29159    21.29262    21.29278    21.29209    21.29054    21.28815    21.28492
    21.28087    21.27604    21.27043    21.26410    21.25705    21.24935    21.24101    21.23208
    21.22261    21.21263    21.20217    21.19129    21.18002    21.16840    21.15647    21.14426
    21.13181    21.11914    21.10629    21.09330    21.08017    21.06695    21.05365    21.04030
    21.02691    21.01351    21.00010    20.98671    20.97335    20.96004    20.94678    20.93358
    20.92046    20.90742    20.89447    20.88162    20.86888    20.85624    20.84372    20.83132
    20.81904    20.80688    20.79486    20.78296    20.77120    20.75957    20.74809    20.73674
    20.72552    20.71445    20.70352    20.69274    20.68209    20.67159    20.66122    20.65101
    20.64093    20.63100    20.62121    20.61156    20.60205    20.59269    20.58347    20.57438
    20.56544    20.55665    20.54799    20.53947    20.53109    20.52286    20.51476    20.50680
    20.49899    20.49131    20.48377    20.47637    20.46912    20.46200    20.45502    20.44818
    20.44148    20.43493    20.42851    20.42224    20.41611    20.41012    20.40427    20.39857
    20.39302    20.38761    20.38235    20.37723    20.37227    20.36746    20.36280    20.35829
    20.35394    20.34975    20.34572    20.34185    20.33814    20.33461    20.33124    20.32804
    20.32501    20.32217    20.31950    20.31702    20.31473    20.31263    20.31072    20.30902
    20.30752    20.30623    20.30516    20.30431    20.30368    20.30329    20.30314    20.30323
    20.30358    20.30419    20.30506    20.30622    20.30766    20.30939    20.31144    20.31380
    20.31649    20.31952    20.32291    20.32667    20.33080    20.33533    20.34028    20.34566
    20.35149    20.35779    20.36457    20.37187    20.37971    20.38810    20.39709    20.40668
    20.41693    20.42786    20.43950    20.45190    20.46510    20.47913    20.49406    20.50992
    20.52678    20.54469    20.56373    20.58397    20.60548    20.62836    20.65270    20.67862
    20.70622    20.73566    20.76708    20.80065    20.83658    20.87509    20.91645    20.96096
    21.00900    21.06100    21.11749    21.17912    21.24670    21.32127    21.40417    21.49719
    21.60281    21.72459    21.86791    22.04150    22.26105    22.55957    23.03113    24.28586
    24.28563
